Equation of Ideal Gas : Graph
Volume		Pressure

927.615077218581	2.42708360221194
955.722741673381	2.3241674113659
984.682096468826	2.27774445634261
1014.51894867393	2.21476594700272
1045.2598873377	2.14611248275838
1076.93230718392	2.09169670895254
1109.5644330239	2.03782431412391
1143.18534490895	1.99461906820831
1177.82500404504	1.94648317612988
1213.51427949261	1.89305368721414
1250.28497567551	1.82229757727005
1288.16986072346	1.77051709107417
1327.20269567324	1.74505390216691
1367.41826455483	1.69635597956896
1408.85240538911	1.6453233376105
1451.5420421248	1.59828614854776
1495.52521754323	1.57229643469943
1540.84112716001	1.52328575419256
1587.53015415408	1.48671091610969
1635.6339053551	1.45247268456689
1685.19524832127	1.41902631155722
1736.25834954065	1.37416852984118
1788.86871379008	1.33674449999045
1843.07322468664	1.30145748083337
1898.92018646787	1.26338148015463
1956.45936703803	1.23603890291456
2015.74204231865	1.21618627969576
2076.82104194295	1.19153439439631
2139.75079633486	1.13873459365685
2204.5873852146	1.11924983716459
2271.38858757399	1.09185711415995
2340.21393316607	1.07726004688793
2411.12475555493	1.03484251329171
2484.184246773	1.01087781676229
2559.45751363447	0.991836163290575
2637.01163575511	0.966223756829748
2716.91572533013	0.939928918437765
2799.24098872336	0.922174644256317
2884.06078992266	0.896951620249808
2971.45071591811	0.870448149706849
3061.48864406114	0.847176695102598
3154.25481146484	0.832998791609952
3249.83188650704	0.804154473968684
3348.30504250009	0.784210296802919
3449.76203359288	0.769138525113559
3554.29327297278	0.743272465216597
3661.99191343713	0.732612516955119
3772.95393040619	0.716909350309816
3887.27820745142	0.691217553840243
4005.06662441541	0.685253242373659
4126.42414820182	0.658109653629554
4251.45892631649	0.643534659813639
4380.2823832428	0.632005446470538
4513.00931973744	0.597102346143474
4649.75801513481	0.606876865474965
4790.65033275141	0.585582242223836
4935.81182848411	0.569752844235797
5085.371862699	0.553323626562564
5239.46371551065	0.543106987043802
5398.22470555433	0.538788946747299
5561.79631235734	0.517159514149167
5730.32430241808	0.501881880691297
5903.95885910565	0.487245468520514
6082.85471649541	0.482259684406708
6267.17129725994	0.466996819348186
6457.07285473821	0.454278011549696
6652.72861930963	0.448754103078833
6854.31294920333	0.434476075247145
7062.00548587714	0.423095394569035
7275.99131410471	0.415174830706503
7496.4611269134	0.403191907261829
7723.61139552	0.389134812038354
7957.64454441565	0.386503637217483
8198.76913175599	0.380139686740274
8447.20003521732	0.364238327598838
8703.15864348445	0.356944997001928
8966.87305354067	0.343143580702873
9238.57827393601	0.342501147867378
9518.51643421454	0.327435474020489
9806.93700068767	0.321591166924248
10104.0969987455	0.315912748319877
10410.2612419045	0.308905203609589
10725.7025677954	0.298758347050416
11050.7020813022	0.290756745428501
11385.5494050678	0.291096178253353
11730.5429375907	0.281250080752429
12085.9901191427	0.270336260513081
12452.2077057428	0.263376428135391
12829.5220514345	0.264125406215447
13218.269399115	0.25124428254278
13618.7961801776	0.248664358529864
14031.4593232332	0.239332362263094
14456.6265721865	0.230921495193316
14894.6768139503	0.230683568360166
15346.0004160898	0.218790189429901
15810.9995746977	0.216604718256371
16290.0886728106	0.217051489112168
16783.6946496855	0.205206461816994
17292.2573812656	0.20130153651771
